Time,H,T,I,E,alpha1,alpha2,beta1,beta2,delta1,gamma2,s,rho,omega,mu,alpha3,gamma3,sigma1,sigma2,sigma3,v,theta,pi,Tissue
0.0,0.999999999999998,9.99999999999998e-06,1.379310345,0.499999999999999,0.7,0.98,0.3,0.4,1.0,0.9,0.4,0.2,0.3,0.29,1.0,0.085,1.2,0.94,0.3,0.4,0.8,0.0,1.0
0.05,0.9895486465695973,0.023248298144014412,1.368382704849983,0.499999999999999,0.7,0.98,0.3,0.4,1.0,0.9,0.4,0.2,0.3,0.29,1.0,0.085,1.2,0.94,0.3,0.4,0.8,0.0,1.0
0.1,0.9782420735757915,0.04595416589004564,1.3584596574589987,0.499999999999999,0.7,0.98,0.3,0.4,1.0,0.9,0.4,0.2,0.3,0.29,1.0,0.085,1.2,0.94,0.3,0.4,0.8,0.0,1.0
0.15000000000000002,0.9661501644609845,0.06811351818232261,1.3493792426921267,0.499999999999999,0.7,0.98,0.3,0.4,1.0,0.9,0.4,0.2,0.3,0.29,1.0,0.085,1.2,0.94,0.3,0.4,0.8,0.0,1.0
0.2,0.9533424640893396,0.08971256086768119,1.3410139619212718,0.499999999999999,0.7,0.98,0.3,0.4,1.0,0.9,0.4,0.2,0.3,0.29,1.0,0.085,1.2,0.94,0.3,0.4,0.8,0.0,1.0
0.25,0.9398877576257312,0.11073835777575995,1.3332617506992157,0.499999999999999,0.7,0.98,0.3,0.4,1.0,0.9,0.4,0.2,0.3,0.29,1.0,0.085,1.2,0.94,0.3,0.4,0.8,0.0,1.0
0.30000000000000004,0.9258537264178871,0.13117915145840234,1.326038593139031,0.499999999999999,0.7,0.98,0.3,0.4,1.0,0.9,0.4,0.2,0.3,0.29,1.0,0.085,1.2,0.94,0.3,0.4,0.8,0.0,1.0
0.35000000000000003,0.9113065441560796,0.1510246431789108,1.3192754576722165,0.499999999999999,0.7,0.98,0.3,0.4,1.0,0.9,0.4,0.2,0.3,0.29,1.0,0.085,1.2,0.94,0.3,0.4,0.8,0.0,1.0
0.4,0.896310470937062,0.17026625703201725,1.312915525580571,0.499999999999999,0.7,0.98,0.3,0.4,1.0,0.9,0.4,0.2,0.3,0.29,1.0,0.085,1.2,0.94,0.3,0.4,0.8,0.0,1.0
0.45,0.8809276233884216,0.1888971923716951,1.306911026349785,0.499999999999999,0.7,0.98,0.3,0.4,1.0,0.9,0.4,0.2,0.3,0.29,1.0,0.085,1.2,0.94,0.3,0.4,0.8,0.0,1.0
0.5,0.865217695447547,0.2069124630519415,1.3012212397893954,0.499999999999999,0.7,0.98,0.3,0.4,1.0,0.9,0.4,0.2,0.3,0.29,1.0,0.085,1.2,0.94,0.3,0.4,0.8,0.0,1.0
0.55,0.8492377902097435,0.22430890813985394,1.2958116180677537,0.499999999999999,0.7,0.98,0.3,0.4,1.0,0.9,0.4,0.2,0.3,0.29,1.0,0.085,1.2,0.94,0.3,0.4,0.8,0.0,1.0
0.6000000000000001,0.833042255615975,0.2410851907806741,1.290652811628795,0.499999999999999,0.7,0.98,0.3,0.4,1.0,0.9,0.4,0.2,0.3,0.29,1.0,0.085,1.2,0.94,0.3,0.4,0.8,0.0,1.0
0.65,0.8166825261605146,0.2572417671777552,1.2857196139299805,0.499999999999999,0.7,0.98,0.3,0.4,1.0,0.9,0.4,0.2,0.3,0.29,1.0,0.085,1.2,0.94,0.3,0.4,0.8,0.0,1.0
0.7000000000000001,0.800207022683809,0.2727807687624752,1.2809902355310472,0.499999999999999,0.7,0.98,0.3,0.4,1.0,0.9,0.4,0.2,0.3,0.29,1.0,0.085,1.2,0.94,0.3,0.4,0.8,0.0,1.0
0.75,0.7836611053832925,0.28770596730894804,1.2764457440757657,0.499999999999999,0.7,0.98,0.3,0.4,1.0,0.9,0.4,0.2,0.3,0.29,1.0,0.085,1.2,0.94,0.3,0.4,0.8,0.0,1.0
0.8,0.7670870597445708,0.302022647019558,1.272069650872439,0.499999999999999,0.7,0.98,0.3,0.4,1.0,0.9,0.4,0.2,0.3,0.29,1.0,0.085,1.2,0.94,0.3,0.4,0.8,0.0,1.0
0.8500000000000001,0.7505241068234739,0.315737511266253,1.2678476050874667,0.499999999999999,0.7,0.98,0.3,0.4,1.0,0.9,0.4,0.2,0.3,0.29,1.0,0.085,1.2,0.94,0.3,0.4,0.8,0.0,1.0
0.9,0.7340084377255129,0.3288585489603464,1.2637670419456644,0.499999999999999,0.7,0.98,0.3,0.4,1.0,0.9,0.4,0.2,0.3,0.29,1.0,0.085,1.2,0.94,0.3,0.4,0.8,0.0,1.0
0.9500000000000001,0.7175732876080515,0.3413949026794216,1.2598168957111577,0.499999999999999,0.7,0.98,0.3,0.4,1.0,0.9,0.4,0.2,0.3,0.29,1.0,0.085,1.2,0.94,0.3,0.4,0.8,0.0,1.0
1.0,0.7012490118203563,0.35335675265817057,1.2559873717476662,0.499999999999999,0.7,0.98,0.3,0.4,1.0,0.9,0.4,0.2,0.3,0.29,1.0,0.085,1.2,0.94,0.3,0.4,0.8,0.0,1.0
1.05,0.6850631036775467,0.3647553242332364,1.2522700295939146,0.499999999999999,0.7,0.98,0.3,0.4,1.0,0.9,0.4,0.2,0.3,0.29,1.0,0.085,1.2,0.94,0.3,0.4,0.8,0.0,1.0
1.1,0.6690404304028296,0.37560255207107024,1.2486571872869328,0.499999999999999,0.7,0.98,0.3,0.4,1.0,0.9,0.4,0.2,0.3,0.29,1.0,0.085,1.2,0.94,0.3,0.4,0.8,0.0,1.0
1.1500000000000001,0.6532031125801734,0.38591131981999166,1.245142446331856,0.499999999999999,0.7,0.98,0.3,0.4,1.0,0.9,0.4,0.2,0.3,0.29,1.0,0.085,1.2,0.94,0.3,0.4,0.8,0.0,1.0
1.2000000000000002,0.6375710094572589,0.39569483509063486,1.2417196779286197,0.499999999999999,0.7,0.98,0.3,0.4,1.0,0.9,0.4,0.2,0.3,0.29,1.0,0.085,1.2,0.94,0.3,0.4,0.8,0.0,1.0
1.25,0.6221614321639688,0.404967079292473,1.238383807496539,0.499999999999999,0.7,0.98,0.3,0.4,1.0,0.9,0.4,0.2,0.3,0.29,1.0,0.085,1.2,0.94,0.3,0.4,0.8,0.0,1.0
1.3,0.6069896586714713,0.41374225580988405,1.2351300086462507,0.499999999999999,0.7,0.98,0.3,0.4,1.0,0.9,0.4,0.2,0.3,0.29,1.0,0.085,1.2,0.94,0.3,0.4,0.8,0.0,1.0
1.35,0.5920688031578697,0.4220349573594128,1.2319540510237375,0.499999999999999,0.7,0.98,0.3,0.4,1.0,0.9,0.4,0.2,0.3,0.29,1.0,0.085,1.2,0.94,0.3,0.4,0.8,0.0,1.0
1.4000000000000001,0.577410154870399,0.42985993168029807,1.2288520791175637,0.499999999999999,0.7,0.98,0.3,0.4,1.0,0.9,0.4,0.2,0.3,0.29,1.0,0.085,1.2,0.94,0.3,0.4,0.8,0.0,1.0
1.4500000000000002,0.5630231636023991,0.4372320837016207,1.2258205761540897,0.499999999999999,0.7,0.98,0.3,0.4,1.0,0.9,0.4,0.2,0.3,0.29,1.0,0.085,1.2,0.94,0.3,0.4,0.8,0.0,1.0
1.5,0.5489156348127425,0.44416642347739826,1.2228564648081435,0.499999999999999,0.7,0.98,0.3,0.4,1.0,0.9,0.4,0.2,0.3,0.29,1.0,0.085,1.2,0.94,0.3,0.4,0.8,0.0,1.0
1.55,0.5350938402170363,0.45067794354722474,1.219956884049431,0.499999999999999,0.7,0.98,0.3,0.4,1.0,0.9,0.4,0.2,0.3,0.29,1.0,0.085,1.2,0.94,0.3,0.4,0.8,0.0,1.0
1.6,0.5215626188693365,0.4567816473702479,1.217119321854901,0.499999999999999,0.7,0.98,0.3,0.4,1.0,0.9,0.4,0.2,0.3,0.29,1.0,0.085,1.2,0.94,0.3,0.4,0.8,0.0,1.0
1.6500000000000001,0.5083255226477207,0.4624924188992047,1.2143414608977203,0.499999999999999,0.7,0.98,0.3,0.4,1.0,0.9,0.4,0.2,0.3,0.29,1.0,0.085,1.2,0.94,0.3,0.4,0.8,0.0,1.0
1.7000000000000002,0.49538490675620567,0.46782502835492445,1.2116211986706518,0.499999999999999,0.7,0.98,0.3,0.4,1.0,0.9,0.4,0.2,0.3,0.29,1.0,0.085,1.2,0.94,0.3,0.4,0.8,0.0,1.0
1.75,0.48274205587346697,0.4727940505612126,1.2089566089998933,0.499999999999999,0.7,0.98,0.3,0.4,1.0,0.9,0.4,0.2,0.3,0.29,1.0,0.085,1.2,0.94,0.3,0.4,0.8,0.0,1.0
1.8,0.4703972840477913,0.4774138364490194,1.2063459013584783,0.499999999999999,0.7,0.98,0.3,0.4,1.0,0.9,0.4,0.2,0.3,0.29,1.0,0.085,1.2,0.94,0.3,0.4,0.8,0.0,1.0
1.85,0.45835003038853506,0.48169847995312565,1.203787427615965,0.499999999999999,0.7,0.98,0.3,0.4,1.0,0.9,0.4,0.2,0.3,0.29,1.0,0.085,1.2,0.94,0.3,0.4,0.8,0.0,1.0
1.9000000000000001,0.44659895873962846,0.4856617804112238,1.2012796507483352,0.499999999999999,0.7,0.98,0.3,0.4,1.0,0.9,0.4,0.2,0.3,0.29,1.0,0.085,1.2,0.94,0.3,0.4,0.8,0.0,1.0
1.9500000000000002,0.43514203263401424,0.4893172321598176,1.1988211398961601,0.499999999999999,0.7,0.98,0.3,0.4,1.0,0.9,0.4,0.2,0.3,0.29,1.0,0.085,1.2,0.94,0.3,0.4,0.8,0.0,1.0
2.0,0.4239766045753102,0.49267799800467166,1.1964105641805192,0.499999999999999,0.7,0.98,0.3,0.4,1.0,0.9,0.4,0.2,0.3,0.29,1.0,0.085,1.2,0.94,0.3,0.4,0.8,0.0,1.0
2.0500000000000003,0.4130994774426183,0.4957569019550143,1.1940466722213732,0.499999999999999,0.7,0.98,0.3,0.4,1.0,0.9,0.4,0.2,0.3,0.29,1.0,0.085,1.2,0.94,0.3,0.4,0.8,0.0,1.0
2.1,0.4025069835389817,0.4985664153954009,1.1917282940192617,0.499999999999999,0.7,0.98,0.3,0.4,1.0,0.9,0.4,0.2,0.3,0.29,1.0,0.085,1.2,0.94,0.3,0.4,0.8,0.0,1.0
2.15,0.3921950332694897,0.5011186490545722,1.1894543226469056,0.499999999999999,0.7,0.98,0.3,0.4,1.0,0.9,0.4,0.2,0.3,0.29,1.0,0.085,1.2,0.94,0.3,0.4,0.8,0.0,1.0
2.2,0.38215918842152913,0.5034253447280459,1.1872237106071284,0.499999999999999,0.7,0.98,0.3,0.4,1.0,0.9,0.4,0.2,0.3,0.29,1.0,0.085,1.2,0.94,0.3,0.4,0.8,0.0,1.0
2.25,0.372394696449661,0.5054978726241068,1.1850354633915166,0.499999999999999,0.7,0.98,0.3,0.4,1.0,0.9,0.4,0.2,0.3,0.29,1.0,0.085,1.2,0.94,0.3,0.4,0.8,0.0,1.0
2.3000000000000003,0.36289656145762034,0.507347222088522,1.1828886289961025,0.499999999999999,0.7,0.98,0.3,0.4,1.0,0.9,0.4,0.2,0.3,0.29,1.0,0.085,1.2,0.94,0.3,0.4,0.8,0.0,1.0
2.35,0.3536595628164961,0.5089840106193257,1.1807823005156282,0.499999999999999,0.7,0.98,0.3,0.4,1.0,0.9,0.4,0.2,0.3,0.29,1.0,0.085,1.2,0.94,0.3,0.4,0.8,0.0,1.0
2.4000000000000004,0.3446783253571508,0.5104184710446691,1.1787156035242417,0.499999999999999,0.7,0.98,0.3,0.4,1.0,0.9,0.4,0.2,0.3,0.29,1.0,0.085,1.2,0.94,0.3,0.4,0.8,0.0,1.0
2.45,0.3359473224465431,0.5116604720230438,1.1766877008281607,0.499999999999999,0.7,0.98,0.3,0.4,1.0,0.9,0.4,0.2,0.3,0.29,1.0,0.085,1.2,0.94,0.3,0.4,0.8,0.0,1.0
2.5,0.32746094554240984,0.51271950350807,1.1746977819078517,0.499999999999999,0.7,0.98,0.3,0.4,1.0,0.9,0.4,0.2,0.3,0.29,1.0,0.085,1.2,0.94,0.3,0.4,0.8,0.0,1.0
2.5500000000000003,0.31921349387723763,0.5136047022232237,1.1727450661611805,0.499999999999999,0.7,0.98,0.3,0.4,1.0,0.9,0.4,0.2,0.3,0.29,1.0,0.085,1.2,0.94,0.3,0.4,0.8,0.0,1.0
2.6,0.311199242306704,0.5143248399104197,1.1708287952803837,0.499999999999999,0.7,0.98,0.3,0.4,1.0,0.9,0.4,0.2,0.3,0.29,1.0,0.085,1.2,0.94,0.3,0.4,0.8,0.0,1.0
2.6500000000000004,0.3034124216717786,0.5148883466892018,1.1689482354943181,0.499999999999999,0.7,0.98,0.3,0.4,1.0,0.9,0.4,0.2,0.3,0.29,1.0,0.085,1.2,0.94,0.3,0.4,0.8,0.0,1.0
2.7,0.29584728293306634,0.5153033053122604,1.1671026713551709,0.499999999999999,0.7,0.98,0.3,0.4,1.0,0.9,0.4,0.2,0.3,0.29,1.0,0.085,1.2,0.94,0.3,0.4,0.8,0.0,1.0
2.75,0.28849807262255234,0.5155774701509626,1.1652914084719457,0.499999999999999,0.7,0.98,0.3,0.4,1.0,0.9,0.4,0.2,0.3,0.29,1.0,0.085,1.2,0.94,0.3,0.4,0.8,0.0,1.0
2.8000000000000003,0.2813590915136854,0.5157182666753186,1.163513767515147,0.499999999999999,0.7,0.98,0.3,0.4,1.0,0.9,0.4,0.2,0.3,0.29,1.0,0.085,1.2,0.94,0.3,0.4,0.8,0.0,1.0
2.85,0.2744246678276142,0.5157328084093558,1.161769087479807,0.499999999999999,0.7,0.98,0.3,0.4,1.0,0.9,0.4,0.2,0.3,0.29,1.0,0.085,1.2,0.94,0.3,0.4,0.8,0.0,1.0
2.9000000000000004,0.2676892100751498,0.5156278985685541,1.1600567201981828,0.499999999999999,0.7,0.98,0.3,0.4,1.0,0.9,0.4,0.2,0.3,0.29,1.0,0.085,1.2,0.94,0.3,0.4,0.8,0.0,1.0
2.95,0.26114717947705235,0.5154100470505598,1.1583760330685056,0.499999999999999,0.7,0.98,0.3,0.4,1.0,0.9,0.4,0.2,0.3,0.29,1.0,0.085,1.2,0.94,0.3,0.4,0.8,0.0,1.0
3.0,0.2547931361710257,0.5150854731131813,1.156726404914699,0.499999999999999,0.7,0.98,0.3,0.4,1.0,0.9,0.4,0.2,0.3,0.29,1.0,0.085,1.2,0.94,0.3,0.4,0.8,0.0,1.0
3.0500000000000003,0.2486217114524783,0.514660121694933,1.1551072287166024,0.499999999999999,0.7,0.98,0.3,0.4,1.0,0.9,0.4,0.2,0.3,0.29,1.0,0.085,1.2,0.94,0.3,0.4,0.8,0.0,1.0
3.1,0.24262764794618377,0.5141396679851832,1.1535179076990432,0.499999999999999,0.7,0.98,0.3,0.4,1.0,0.9,0.4,0.2,0.3,0.29,1.0,0.085,1.2,0.94,0.3,0.4,0.8,0.0,1.0
3.1500000000000004,0.23680577483471985,0.5135295301717622,1.1519578573687659,0.499999999999999,0.7,0.98,0.3,0.4,1.0,0.9,0.4,0.2,0.3,0.29,1.0,0.085,1.2,0.94,0.3,0.4,0.8,0.0,1.0
3.2,0.23115103896311714,0.5128348777532162,1.150426503039041,0.499999999999999,0.7,0.98,0.3,0.4,1.0,0.9,0.4,0.2,0.3,0.29,1.0,0.085,1.2,0.94,0.3,0.4,0.8,0.0,1.0
3.25,0.2256584747457715,0.5120606393755212,1.1489232817853885,0.499999999999999,0.7,0.98,0.3,0.4,1.0,0.9,0.4,0.2,0.3,0.29,1.0,0.085,1.2,0.94,0.3,0.4,0.8,0.0,1.0
3.3000000000000003,0.2203232529502997,0.511211516011467,1.1474476388375996,0.499999999999999,0.7,0.98,0.3,0.4,1.0,0.9,0.4,0.2,0.3,0.29,1.0,0.085,1.2,0.94,0.3,0.4,0.8,0.0,1.0
3.35,0.2151406627011743,0.5102919882404765,1.1459990286824229,0.499999999999999,0.7,0.98,0.3,0.4,1.0,0.9,0.4,0.2,0.3,0.29,1.0,0.085,1.2,0.94,0.3,0.4,0.8,0.0,1.0
3.4000000000000004,0.21010605671467372,0.5093063184324735,1.1445769188714,0.499999999999999,0.7,0.98,0.3,0.4,1.0,0.9,0.4,0.2,0.3,0.29,1.0,0.085,1.2,0.94,0.3,0.4,0.8,0.0,1.0
3.45,0.20521497474939804,0.5082585742825373,1.1431807809418004,0.499999999999999,0.7,0.98,0.3,0.4,1.0,0.9,0.4,0.2,0.3,0.29,1.0,0.085,1.2,0.94,0.3,0.4,0.8,0.0,1.0
3.5,0.20046306422180196,0.507152627824758,1.141810095976792,0.499999999999999,0.7,0.98,0.3,0.4,1.0,0.9,0.4,0.2,0.3,0.29,1.0,0.085,1.2,0.94,0.3,0.4,0.8,0.0,1.0
3.5500000000000003,0.19584601575483762,0.5059921533512627,1.1404643589363879,0.499999999999999,0.7,0.98,0.3,0.4,1.0,0.9,0.4,0.2,0.3,0.29,1.0,0.085,1.2,0.94,0.3,0.4,0.8,0.0,1.0
3.6,0.19135972705599413,0.5047806615348022,1.1391430669583058,0.499999999999999,0.7,0.98,0.3,0.4,1.0,0.9,0.4,0.2,0.3,0.29,1.0,0.085,1.2,0.94,0.3,0.4,0.8,0.0,1.0
3.6500000000000004,0.18700018888959283,0.5035214892832841,1.1378457271482014,0.499999999999999,0.7,0.98,0.3,0.4,1.0,0.9,0.4,0.2,0.3,0.29,1.0,0.085,1.2,0.94,0.3,0.4,0.8,0.0,1.0
3.7,0.18276344884250748,0.5022177958923717,1.1365718585302913,0.499999999999999,0.7,0.98,0.3,0.4,1.0,0.9,0.4,0.2,0.3,0.29,1.0,0.085,1.2,0.94,0.3,0.4,0.8,0.0,1.0
3.75,0.17864573218681035,0.5008726030215405,1.1353209841654939,0.499999999999999,0.7,0.98,0.3,0.4,1.0,0.9,0.4,0.2,0.3,0.29,1.0,0.085,1.2,0.94,0.3,0.4,0.8,0.0,1.0
3.8000000000000003,0.174643355588566,0.4994887785027024,1.1340926364058952,0.499999999999999,0.7,0.98,0.3,0.4,1.0,0.9,0.4,0.2,0.3,0.29,1.0,0.085,1.2,0.94,0.3,0.4,0.8,0.0,1.0
3.85,0.1707527229186982,0.49806903324932394,1.13288635669628,0.499999999999999,0.7,0.98,0.3,0.4,1.0,0.9,0.4,0.2,0.3,0.29,1.0,0.085,1.2,0.94,0.3,0.4,0.8,0.0,1.0
3.9000000000000004,0.1669703695038566,0.49661596086705245,1.1317016930997583,0.499999999999999,0.7,0.98,0.3,0.4,1.0,0.9,0.4,0.2,0.3,0.29,1.0,0.085,1.2,0.94,0.3,0.4,0.8,0.0,1.0
3.95,0.16329292863913364,0.49513201980335403,1.1305382017965973,0.499999999999999,0.7,0.98,0.3,0.4,1.0,0.9,0.4,0.2,0.3,0.29,1.0,0.085,1.2,0.94,0.3,0.4,0.8,0.0,1.0
4.0,0.15971713346917424,0.49361953167849343,1.1293954465929374,0.499999999999999,0.7,0.98,0.3,0.4,1.0,0.9,0.4,0.2,0.3,0.29,1.0,0.085,1.2,0.94,0.3,0.4,0.8,0.0,1.0
4.05,0.1562398239890821,0.49208071733359504,1.1282729987892641,0.499999999999999,0.7,0.98,0.3,0.4,1.0,0.9,0.4,0.2,0.3,0.29,1.0,0.085,1.2,0.94,0.3,0.4,0.8,0.0,1.0
4.1000000000000005,0.1528579380672101,0.49051767963258536,1.1271704371286788,0.499999999999999,0.7,0.98,0.3,0.4,1.0,0.9,0.4,0.2,0.3,0.29,1.0,0.085,1.2,0.94,0.3,0.4,0.8,0.0,1.0
4.15,0.14956850619125556,0.48893240271359084,1.1260873478590967,0.499999999999999,0.7,0.98,0.3,0.4,1.0,0.9,0.4,0.2,0.3,0.29,1.0,0.085,1.2,0.94,0.3,0.4,0.8,0.0,1.0
4.2,0.1463686605911364,0.48732678445287847,1.12502332424175,0.499999999999999,0.7,0.98,0.3,0.4,1.0,0.9,0.4,0.2,0.3,0.29,1.0,0.085,1.2,0.94,0.3,0.4,0.8,0.0,1.0
4.25,0.14325562300413539,0.4857026199457962,1.1239779668628935,0.499999999999999,0.7,0.98,0.3,0.4,1.0,0.9,0.4,0.2,0.3,0.29,1.0,0.085,1.2,0.94,0.3,0.4,0.8,0.0,1.0
4.3,0.14022669737560992,0.48406160122155295,1.122950883860023,0.499999999999999,0.7,0.98,0.3,0.4,1.0,0.9,0.4,0.2,0.3,0.29,1.0,0.085,1.2,0.94,0.3,0.4,0.8,0.0,1.0
4.3500000000000005,0.13727928415153468,0.48240534709523497,1.1219416899411798,0.499999999999999,0.7,0.98,0.3,0.4,1.0,0.9,0.4,0.2,0.3,0.29,1.0,0.085,1.2,0.94,0.3,0.4,0.8,0.0,1.0
4.4,0.13441086441006095,0.48073538671162264,1.1209500070452743,0.499999999999999,0.7,0.98,0.3,0.4,1.0,0.9,0.4,0.2,0.3,0.29,1.0,0.085,1.2,0.94,0.3,0.4,0.8,0.0,1.0
4.45,0.13161899676474298,0.4790531598632712,1.1199754643148228,0.499999999999999,0.7,0.98,0.3,0.4,1.0,0.9,0.4,0.2,0.3,0.29,1.0,0.085,1.2,0.94,0.3,0.4,0.8,0.0,1.0
4.5,0.12890132375894828,0.47736004429263296,1.119017697520313,0.499999999999999,0.7,0.98,0.3,0.4,1.0,0.9,0.4,0.2,0.3,0.29,1.0,0.085,1.2,0.94,0.3,0.4,0.8,0.0,1.0
4.55,0.12625556324776266,0.4756573395156486,1.118076349341838,0.499999999999999,0.7,0.98,0.3,0.4,1.0,0.9,0.4,0.2,0.3,0.29,1.0,0.085,1.2,0.94,0.3,0.4,0.8,0.0,1.0
4.6000000000000005,0.12367950822252367,0.47394626807894635,1.1171510691714137,0.499999999999999,0.7,0.98,0.3,0.4,1.0,0.9,0.4,0.2,0.3,0.29,1.0,0.085,1.2,0.94,0.3,0.4,0.8,0.0,1.0
4.65,0.12117102225588396,0.4722279994838324,1.1162415131513406,0.499999999999999,0.7,0.98,0.3,0.4,1.0,0.9,0.4,0.2,0.3,0.29,1.0,0.085,1.2,0.94,0.3,0.4,0.8,0.0,1.0
4.7,0.11872804143930117,0.4705036314948985,1.1153473438988197,0.499999999999999,0.7,0.98,0.3,0.4,1.0,0.9,0.4,0.2,0.3,0.29,1.0,0.085,1.2,0.94,0.3,0.4,0.8,0.0,1.0
4.75,0.11634857357541245,0.46877419215556954,1.1144682303665956,0.499999999999999,0.7,0.98,0.3,0.4,1.0,0.9,0.4,0.2,0.3,0.29,1.0,0.085,1.2,0.94,0.3,0.4,0.8,0.0,1.0
4.800000000000001,0.11403068455157865,0.4670406748732083,1.1136038482590738,0.499999999999999,0.7,0.98,0.3,0.4,1.0,0.9,0.4,0.2,0.3,0.29,1.0,0.085,1.2,0.94,0.3,0.4,0.8,0.0,1.0
4.8500000000000005,0.11177250483961301,0.46530401751079814,1.1127538795712117,0.499999999999999,0.7,0.98,0.3,0.4,1.0,0.9,0.4,0.2,0.3,0.29,1.0,0.085,1.2,0.94,0.3,0.4,0.8,0.0,1.0
4.9,0.10957222458300764,0.46356511322955335,1.1119180126248405,0.499999999999999,0.7,0.98,0.3,0.4,1.0,0.9,0.4,0.2,0.3,0.29,1.0,0.085,1.2,0.94,0.3,0.4,0.8,0.0,1.0
4.95,0.10742811244799629,0.4618247436366008,1.1110959411056385,0.499999999999999,0.7,0.98,0.3,0.4,1.0,0.9,0.4,0.2,0.3,0.29,1.0,0.085,1.2,0.94,0.3,0.4,0.8,0.0,1.0
5.0,0.10533847418986188,0.4600837122391797,1.110287365625183,0.499999999999999,0.7,0.98,0.3,0.4,1.0,0.9,0.4,0.2,0.3,0.29,1.0,0.085,1.2,0.94,0.3,0.4,0.8,0.0,1.0
5.050000000000001,0.10330167157316561,0.4583427773625054,1.1094919927550266,0.499999999999999,0.7,0.98,0.3,0.4,1.0,0.9,0.4,0.2,0.3,0.29,1.0,0.085,1.2,0.94,0.3,0.4,0.8,0.0,1.0
5.1000000000000005,0.10131611988327752,0.45660265620173446,1.1087095349574967,0.499999999999999,0.7,0.98,0.3,0.4,1.0,0.9,0.4,0.2,0.3,0.29,1.0,0.085,1.2,0.94,0.3,0.4,0.8,0.0,1.0
5.15,0.0993802943191675,0.4548640033542457,1.1079397104311757,0.499999999999999,0.7,0.98,0.3,0.4,1.0,0.9,0.4,0.2,0.3,0.29,1.0,0.085,1.2,0.94,0.3,0.4,0.8,0.0,1.0
5.2,0.09749273852156443,0.45312738227587757,1.107182242868311,0.499999999999999,0.7,0.98,0.3,0.4,1.0,0.9,0.4,0.2,0.3,0.29,1.0,0.085,1.2,0.94,0.3,0.4,0.8,0.0,1.0
5.25,0.09565200871718514,0.4513934271047185,1.1064368622162073,0.499999999999999,0.7,0.98,0.3,0.4,1.0,0.9,0.4,0.2,0.3,0.29,1.0,0.085,1.2,0.94,0.3,0.4,0.8,0.0,1.0
5.300000000000001,0.09385671972513616,0.44966270330333596,1.105703303850213,0.499999999999999,0.7,0.98,0.3,0.4,1.0,0.9,0.4,0.2,0.3,0.29,1.0,0.085,1.2,0.94,0.3,0.4,0.8,0.0,1.0
5.3500000000000005,0.0921055294124024,0.44793575029201915,1.1049813087065123,0.499999999999999,0.7,0.98,0.3,0.4,1.0,0.9,0.4,0.2,0.3,0.29,1.0,0.085,1.2,0.94,0.3,0.4,0.8,0.0,1.0
5.4,0.0903971636855929,0.44621300065956937,1.1042706222077947,0.499999999999999,0.7,0.98,0.3,0.4,1.0,0.9,0.4,0.2,0.3,0.29,1.0,0.085,1.2,0.94,0.3,0.4,0.8,0.0,1.0
5.45,0.08873036846066186,0.4444949248932527,1.1035709958770663,0.499999999999999,0.7,0.98,0.3,0.4,1.0,0.9,0.4,0.2,0.3,0.29,1.0,0.085,1.2,0.94,0.3,0.4,0.8,0.0,1.0
5.5,0.08710392758022369,0.4427819724380625,1.10288218652375,0.499999999999999,0.7,0.98,0.3,0.4,1.0,0.9,0.4,0.2,0.3,0.29,1.0,0.085,1.2,0.94,0.3,0.4,0.8,0.0,1.0
5.550000000000001,0.08551666684092486,0.4410745556532913,1.102203955941111,0.499999999999999,0.7,0.98,0.3,0.4,1.0,0.9,0.4,0.2,0.3,0.29,1.0,0.085,1.2,0.94,0.3,0.4,0.8,0.0,1.0
5.6000000000000005,0.0839674545236395,0.4393730535694153,1.101536070986687,0.499999999999999,0.7,0.98,0.3,0.4,1.0,0.9,0.4,0.2,0.3,0.29,1.0,0.085,1.2,0.94,0.3,0.4,0.8,0.0,1.0
5.65,0.08245521339973731,0.43767778999246,1.10087830351684,0.499999999999999,0.7,0.98,0.3,0.4,1.0,0.9,0.4,0.2,0.3,0.29,1.0,0.085,1.2,0.94,0.3,0.4,0.8,0.0,1.0
5.7,0.0809788714321976,0.43598911765965465,1.1002304302252128,0.499999999999999,0.7,0.98,0.3,0.4,1.0,0.9,0.4,0.2,0.3,0.29,1.0,0.085,1.2,0.94,0.3,0.4,0.8,0.0,1.0
5.75,0.07953740066219796,0.43430734984374947,1.0995922326194143,0.499999999999999,0.7,0.98,0.3,0.4,1.0,0.9,0.4,0.2,0.3,0.29,1.0,0.085,1.2,0.94,0.3,0.4,0.8,0.0,1.0
5.800000000000001,0.07812980459439309,0.4326327810490306,1.0989634969169773,0.499999999999999,0.7,0.98,0.3,0.4,1.0,0.9,0.4,0.2,0.3,0.29,1.0,0.085,1.2,0.94,0.3,0.4,0.8,0.0,1.0
5.8500000000000005,0.07675513583793316,0.4309656705070992,1.0983440143698429,0.499999999999999,0.7,0.98,0.3,0.4,1.0,0.9,0.4,0.2,0.3,0.29,1.0,0.085,1.2,0.94,0.3,0.4,0.8,0.0,1.0
5.9,0.07541246524869295,0.4293062713493616,1.097733580550666,0.499999999999999,0.7,0.98,0.3,0.4,1.0,0.9,0.4,0.2,0.3,0.29,1.0,0.085,1.2,0.94,0.3,0.4,0.8,0.0,1.0
